mN/GeV	c tau (meters) for Umu = 1
0.1	383.6166379078997
0.10131254692562633	359.4021057119752
0.10264232164557235	336.7160487926027
0.1039895502827228	315.46198525018633
0.10535446192793131	295.54952350784407
0.10673728867897654	276.8939777755531
0.10813826568002934	259.4159948296565
0.10955763116163819	243.04115285358992
0.1109956264812393	227.69959390439735
0.11245249616419847	213.32572358250715
0.11392848794539173	199.85795746294204
0.11542385281133152	187.23849883574175
0.1169388450428461	175.41313712388924
0.11847372225831888	164.33105992761986
0.12002874545749555	153.94467421871713
0.12160417906586572	144.20943401926087
0.12320029097962787	135.08367313972101
0.12481735261124366	126.52844237194924
0.1264556389355907	118.50735104929109
0.12811542853672092	110.9864131868636
0.12979700365523264	103.93389856612124
0.13150065023626448	97.32018916346358
0.1332266579781192	91.11764140985451
0.1349753203815257	85.300454413072
0.1367469347995477	77.48243282322031
0.1385418024881474	66.88240757169397
0.14036022865741288	55.877355835403755
0.14220252252345783	45.916461927476334
0.14406899736100254	37.53915232710021
0.14595997055664506	30.751261952922466
0.1478757636628314	25.340032589450292
0.1498167024525343	21.044701021954207
0.1517831169746498	17.626911329046642
0.15377534161012038	14.89099662349164
0.15579371512879533	12.68377907650171
0.1578385807470374	10.887815669363109
0.15991028618608485	9.413719248767858
0.1620091837311806	8.193457960112038
0.16413563029147651	7.17504449629766
0.16628998746072468	6.318502852091996
0.16847262157876478	5.592864083180992
0.17068390379381893	4.97394489573624
0.1729242101256037	4.442706684586365
0.17519392152927094	3.98403970227876
0.17749342396018752	3.5858576515066374
0.17982310843956587	3.2384191330662953
0.1821833711209551	2.9338155112375786
0.1845746133576056	2.66558152056871
0.1869972417707175	2.4283969766553377
0.18945166831858506	2.2178565738055
0.19193831036664843	2.0302909305345502
0.194457590758465	1.8626264860287616
0.19700993788761226	1.7122750599564616
0.19959578577053444	1.577046219636885
0.20221557412034527	1.4550773031082396
0.20486974842159944	1.3447772022783986
0.2075587600060456	1.2447809290479177
0.21028306612937306	1.1539127111358694
0.2130431300489669	1.0711557958953477
0.21583942110268264	0.9956268818614588
0.21867241478865562	0.9265554933725132
0.2215425928461569	0.8632682223617809
0.22445044333751205	0.8051749747013792
0.22739646073109315	0.7517572157444388
0.23038114598540224	0.7025580167926079
0.23340500663425628	0.6571736299832395
0.23646855687309218	0.6152463457714704
0.23957231764640283	0.5764584237546044
0.24271681673632242	0.5405269219096465
0.2459025888523731	0.46412556978992403
0.24913017572239052	0.40233033096917614
0.25240012618464214	0.3583724080175091
0.2557129962811556	0.322628951969469
0.2590693493522709	0.29235016177544537
0.26246975613243423	0.2661715857102278
0.26591479484724945	0.24325124842536425
0.2694050513118026	0.22300589227918796
0.2729411190302776	0.20500282762656097
0.27652359929687964	0.18890674480070457
0.2801531012980821	0.1744500222540739
0.2838302422162168	0.16141453507791162
0.2875556473344235	0.14961970196472033
0.2913299501429763	0.138914201682956
0.29515379244700674	0.1291699927239157
0.2990278244756394	0.12027785630200122
0.3029527049925617	0.11214399060353707
0.30692910140804336	0.1046873559244081
0.31095768989242706	0.09783757143346065
0.3150391554911087	0.09153322661776749
0.3191741922410265	0.08572051045211068
0.32336350328867863	0.08035208791555948
0.3276078010096919	0.07538617156151296
0.3319078071299565	0.07078574895729758
0.3362642528483545	0.06651793545344571
0.34067787896109597	0.0625534290382002
0.3451494359876887	0.05886604872062002
0.3496796842985617	0.05543234180434836
0.3542693942443623	0.052231248314423245
0.3589193462869517	0.049243813101655556
0.3636303311321192	0.04645293792121462
0.36840314986403866	0.04384316718277389
0.3732386140814896	0.041400502185647454
0.3781375460358665	0.03911223954808572
0.3831007787709991	0.03696683026353785
0.3881291562648084	0.034953756404806
0.39322353357282136	0.033063422977639007
0.3983847769735707	0.031287062820087155
0.4036137641159006	0.029616652769740535
0.40891138416820844	0.028044839591031427
0.4142785379696444	0.02656487437956874
0.41971613818329456	0.025170554348297992
0.4252251094513769	0.02385617105779961
0.4308063885524723	0.022616464285604397
0.4364609245608194	0.021446580841330217
0.4421896790077028	0.020342037729246018
0.4479936260449553	0.01929868914040522
0.45387375261061014	0.01831269682510042
0.45983105859672563	0.017380503455007017
0.4658665570194118	0.016498808634587064
0.4719812741910913	0.01566454726443391
0.47817624989501856	0.01487486999634868
0.4844525375620908	0.014127125551954113
0.49081120444998066	0.013418844704339608
0.49725333182461845	0.012747725746224823
0.5037800151440569	0.012111621288966897
0.5103923642447501	0.011508526254870801
0.517091503530276	0.010936566941074272
0.5238785721625376	0.010393991047092592
0.5307547242554721	0.00987915857019914
0.5377211290713038	0.009390533483419405
0.5447789712193724	0.008926676120645495
0.5519294508575707	0.008486013163677497
0.5591737838964281	0.008066316495808305
0.5665132022058691	0.007666572716974142
0.5739489538246894	0.007285947750315
0.5814823031727799	0.006923624323328044
0.5891145312661352	0.006578804620330506
0.5968469359346869	0.006250712364296288
0.6046808320429926	0.005934660798643839
0.6126175517138244	0.0056327975874292235
0.6206584445546917	0.005347310603111972
0.6288048778873342	0.005076371941962676
0.6370582369802328	0.0048190863937996814
0.6454199252841663	0.004574726350772564
0.6538913646708632	0.004342634957377102
0.6624739956747866	0.0041221993733197805
0.67116927773809	0.003912840691487547
0.6799786894587896	0.003714009265597405
0.6889037288421951	0.003525182130276244
0.6979459135556384	0.003345861323157669
0.7071067811865475	0.003175572624249518
0.7163878895039065	0.003013864498054295
0.7257908167231498	0.002860307138525513
0.7353171617745274	0.002714491569257554
0.7449685445750016	0.0025760287764478762
0.7547466063037043	0.002444548864642431
0.7646530096810125	0.0023197002315291813
0.7746894392512895	0.0022011487611317223
0.784857601669334	0.0020878824712757477
0.7951592259905896	0.0019791151442628443
0.805596063965163	0.001874952815591099
0.8161698903357044	0.0017754343261240952
0.8268825031391936	0.0016805431219573778
0.8377357240126891	0.0015902183610104865
0.8487313985030909	0.0015043645512689801
0.8598713963809687	0.0014228597883482958
0.8711576119585073	0.0013455626992790878
0.8825919644116281	0.0012425659990572564
0.8941763981063381	0.0011265132502320686
0.9059128829293591	0.0010361545056457732
0.9178034146231009	0.0009569534063261051
0.9298500151250296	0.0008858986681492554
0.9420547329114896	0.0008215547975919944
0.9544196433460364	0.0007629985750610082
0.9669468490323483	0.0007095204138243535
0.9796384801717635	0.0006605217380576111
0.9924966949255101	0.0006139119937924071
1.0055236797816978	0.0005715474485486118
1.0187216499271174	0.0005326178399368077
1.0320928496239252	0.0004967901860184056
1.045639552591273	0.00046376971819004953
1.0593640623919427	0.00043329450821920205
1.0732687128240586	0.0004051311506736342
1.0873558683179398	0.0003790711830487873
1.101627924338164	0.0003549280557528185
1.116087307790906	0.00033253453289155445
1.1307364774366209	0.0003117404430461092
1.1455779243081503	0.00029241072164684314
1.1606141721343117	0.0002744237004452233
1.1758477777690437	0.0002576696087388358
1.1912813316261963	0.00024204925740693627
1.2069174581200166	0.00022747288154561718
1.222758816111418	0.00021385912115539602
1.238808099360113	0.0002011341222760258
1.2550680369826743	0.00018923074338912465
1.2715413939166094	0.0001780878539472125
1.2882309713905276	0.0001676497136209022
1.3051396074004797	0.0001578654223422606
1.3222701771925465	0.00014868843250335687
1.3396255937517607	0.00014007611577673427
1.3572088082974532	0.00013198937798467934
1.3750228107850915	0.0001243923162769853
1.3930706304147114	0.0001179653355520639
1.4113553361460225	0.0001104125020392841
1.4298800372202707	0.0001033457309851009
1.4486478836889503	0.00009673352722712162
1.46766206694946	0.00009054645485798684
1.4869258202877884	0.00008475700099987854
1.5064424194283201	0.00007933944872599195
1.526215183090857	0.00007426975850328164
1.5462474735549578	0.00006952545757461424
1.5665426972316794	0.00006508553673908089
1.587104305242817	0.00006093035402686191
1.6079357940077643	0.00005704154480015139
1.6290407058380587	0.00005340193784407795
1.650422629539737	0.00004999547704180948
1.6720852010236016	0.00004680714825607703
1.694032103923491	0.00004382291106544019
1.7162670702226612	0.000041029635027814705
1.7387938808884054	0.00003841504016633276
1.7616163665149842	0.00003596764139353269
1.7847384079750073	0.00003367669660934118
1.808163937079355	0.00003153215822641581
1.8318969372457745	0.000029524627893223994
1.8559414441762372	0.000027645314200947307
1.8803015465431967	0.000025885993174806228
1.904981386684853	0.0000242389694924311
1.9299851613095393	0.000022697041986653222
1.9553171222093524	0.00002125346386055016
1.9809815769831558	0.000019885179626531535
2.0069828897690725	0.000018619227114722288
2.0333254819865823	0.000017433926239803464
2.0600138330883735	0.000016324108512666634
2.0870524813220515	0.00001496624658296911
2.1144460245018535	0.00001398513063739729
2.14219912079048	0.000013067043207251108
2.170316489491209	0.00001220803199669159
2.1988029118503873	0.000011404376263112521
2.2276632318704612	0.000010652597188307503
2.2569023571336846	9.949424205388568e-6
2.2865252596366323	9.291791358731997e-6
2.316536976635662	8.676821848117069e-6
2.3469426115034895	8.101814437178169e-6
2.3777473345969935	7.5642448698422095e-6
2.4089563841364074	7.061732059211531e-6
2.440575067096068	6.592049631538636e-6
2.4726087601068407	6.153108541661817e-6
2.505062910370391	5.742942460016866e-6
2.537943036585462	5.359714376779644e-6
2.5712547298863115	5.001698791837825e-6
2.6050036547934563	4.667276292191725e-6
2.6391955501769018	4.354929694141168e-6
2.673836230232015	4.063234880090796e-6
2.708931585468209	3.790857580295732e-6
2.7444875837105913	3.5365463269049468e-6
2.78051027111478	3.2991285572441547e-6
2.817005773195022	3.077505123059019e-6
2.85398029586581	2.870645639764324e-6
2.891440126497177	2.6775855925430542e-6
2.929391634983841	2.4974214345789547e-6
2.967841274828377	2.3293063955045096e-6
3.006795584238605	2.1724480613488453e-6
3.046261187239396	2.026103803473535e-6
3.086244794799057	1.8895796274392744e-6
3.126753205970494	1.762225638979667e-6
3.167793309047381	1.6434337140184136e-6
3.20937208273548	1.5326348928231124e-6
3.251496597339333	1.4292976664132464e-6
3.294174015964554	1.3329240552665836e-6
3.3374115957358788	1.2430493866200154e-6
3.3812166890312074	1.1592389608438673e-6
3.4255967447318496	1.0810866764632024e-6
3.470559309489182	1.0082130015330226e-6
3.5161120290079215	9.402634428731393e-7
3.5622626493462413	8.769069935015763e-7
3.609019018232971	8.178341847781805e-7
3.6563890864020583	7.627563394043549e-7
3.704380908944564	7.11403722209039e-7
3.7530026466784037	6.607068303438437e-7
3.802262567536056	6.160472253797303e-7
3.8521690479704924	5.744169757631409e-7
3.902730574379557	5.356111672275131e-7
3.953955744549053	4.994385201120492e-7
4.005853269114758	4.657204913632227e-7
4.058431973043625	4.3429072406933006e-7
4.111700797134444	4.0499379982516954e-7
4.165668799538188	3.7768492205359113e-7
4.2203451572983	3.522290574443406e-7
4.2757391679112375	3.2850023153298595e-7
4.331860250907458	3.0638098269547724e-7
4.388717949453171	2.8576185197940565e-7
4.446321931973128	2.6654077163825727e-7
4.504681993794694	2.4862258197188995e-7
4.563808058813488	2.3191859877930562e-7
4.62371018118093	2.1634618652673497e-7
4.68439854701389	2.0182821689684983e-7
4.7458834761268065	1.8829298098596428e-7
4.808175423786515	1.756735242600383e-7
4.871284982490146	1.6390752193128668e-7
4.935222883766319	1.5293684630931482e-7
5.	1.4270737607760185e-7